time [s]	pressure [bar]	temperature [K]	mass [kg]
0.400006	14.429646	2758.863013	0.001025
0.400011	14.414181	2758.205386	0.001025
0.400017	14.399470	2757.579295	0.001024
0.400022	14.385522	2756.985263	0.001023
0.400028	14.372349	2756.423806	0.001022
0.400033	14.359962	2755.895437	0.001022
0.400039	14.348369	2755.400665	0.001021
0.400044	14.337581	2754.939994	0.001020
0.400050	14.327610	2754.513923	0.001020
0.400056	14.318464	2754.122950	0.001019
0.400061	14.310155	2753.767569	0.001019
0.400067	14.302693	2753.448272	0.001018
0.400072	14.296088	2753.165554	0.001018
0.400078	14.290351	2752.919914	0.001018
0.400083	14.285493	2752.711869	0.001017
0.400089	14.281527	2752.541961	0.001017
0.400094	14.278466	2752.410803	0.001017
0.400100	14.276327	2752.319175	0.001017
0.400106	14.275144	2752.268464	0.001017
0.400111	14.275394	2752.284186	0.001017
0.400117	14.274329	2752.238546	0.001017
0.400122	14.274742	2752.264532	0.001017
0.400128	14.273589	2752.215084	0.001017
0.400133	14.274024	2752.242439	0.001017
0.400139	14.272865	2752.192784	0.001017
0.400144	14.273359	2752.223790	0.001017
0.400150	14.272178	2752.173201	0.001017
0.400156	14.272717	2752.207056	0.001017
0.400161	14.271523	2752.155849	0.001017
0.400167	14.272108	2752.192589	0.001017
0.400172	14.270900	2752.140800	0.001017
0.400178	14.271529	2752.180295	0.001017
0.400183	14.270309	2752.128002	0.001017
0.400189	14.270981	2752.170172	0.001017
0.400194	14.269750	2752.117433	0.001017
0.400200	14.270464	2752.162205	0.001017
0.400206	14.269225	2752.109071	0.001016
0.400211	14.269979	2752.156378	0.001017
0.400217	14.268731	2752.102896	0.001016
0.400222	14.269525	2752.152680	0.001016
0.400228	14.268271	2752.098890	0.001016
0.400233	14.269104	2752.151097	0.001016
0.400239	14.267843	2752.097037	0.001016
0.400244	14.268714	2752.151619	0.001016
0.400250	14.267447	2752.097321	0.001016
0.400256	14.268356	2752.154234	0.001016
0.400261	14.267085	2752.099730	0.001016
0.400267	14.268030	2752.158933	0.001016
0.400272	14.266755	2752.104251	0.001016
0.400278	14.267737	2752.165705	0.001016
0.400283	14.266458	2752.110871	0.001016
0.400289	14.267475	2752.174541	0.001016
0.400294	14.266193	2752.119580	0.001016
0.400300	14.267246	2752.185433	0.001016
0.400306	14.265962	2752.130368	0.001016
0.400311	14.267049	2752.198371	0.001016
0.400317	14.265763	2752.143223	0.001016
0.400322	14.266885	2752.213348	0.001016
0.400328	14.265597	2752.158138	0.001016
0.400333	14.266753	2752.230356	0.001016
0.400339	14.265464	2752.175103	0.001016
0.400344	14.266653	2752.249387	0.001016
0.400350	14.265364	2752.194110	0.001016
0.400356	14.266586	2752.270435	0.001016
0.400361	14.265297	2752.215150	0.001016
0.400367	14.266552	2752.293491	0.001016
0.400372	14.265263	2752.238215	0.001016
0.400378	14.266550	2752.318549	0.001016
0.400383	14.265262	2752.263299	0.001016
0.400389	14.266581	2752.345602	0.001016
0.400394	14.265294	2752.290393	0.001016
0.400400	14.266645	2752.374645	0.001016
0.400406	14.265358	2752.319492	0.001016
0.400411	14.266741	2752.405670	0.001016
0.400417	14.265456	2752.350587	0.001016
0.400422	14.266870	2752.438672	0.001016
0.400428	14.265587	2752.383673	0.001016
0.400433	14.267031	2752.473645	0.001016
0.400439	14.265751	2752.418743	0.001016
0.400444	14.267226	2752.510582	0.001016
0.400450	14.265948	2752.455791	0.001016
0.400456	14.267453	2752.549479	0.001016
0.400461	14.266178	2752.494810	0.001016
0.400467	14.267713	2752.590328	0.001016
0.400472	14.266441	2752.535795	0.001016
0.400478	14.268006	2752.633126	0.001016
0.400483	14.266738	2752.578741	0.001016
0.400489	14.268331	2752.677867	0.001016
0.400494	14.267067	2752.623641	0.001016
0.400500	14.268690	2752.724545	0.001016
0.400506	14.267430	2752.670489	0.001016
0.400511	14.269082	2752.773155	0.001016
0.400517	14.267825	2752.719281	0.001016
0.400522	14.269506	2752.823692	0.001016
0.400528	14.268254	2752.770012	0.001016
0.400533	14.269964	2752.876151	0.001016
0.400539	14.268717	2752.822675	0.001016
0.400544	14.270454	2752.930527	0.001016
0.400550	14.269212	2752.877266	0.001016
0.400556	14.270977	2752.986815	0.001016
0.400561	14.269741	2752.933780	0.001016
0.400567	14.271534	2753.045010	0.001016
0.400572	14.270303	2752.992211	0.001016
0.400578	14.272123	2753.105108	0.001016
0.400583	14.270898	2753.052556	0.001016
0.400589	14.272746	2753.167103	0.001016
0.400594	14.271526	2753.114808	0.001016
0.400600	14.273402	2753.230992	0.001016
0.400606	14.272188	2753.178963	0.001016
0.400611	14.274090	2753.296768	0.001016
0.400617	14.272883	2753.245017	0.001016
0.400622	14.274812	2753.364429	0.001016
0.400628	14.273612	2753.312965	0.001016
0.400633	14.275567	2753.433968	0.001016
0.400639	14.274374	2753.382802	0.001016
0.400644	14.276356	2753.505382	0.001016
0.400650	14.275169	2753.454523	0.001016
0.400656	14.277177	2753.578665	0.001017
0.400661	14.275998	2753.528124	0.001016
0.400667	14.278032	2753.653814	0.001017
0.400672	14.276860	2753.603601	0.001016
0.400678	14.278920	2753.730824	0.001017
0.400683	14.277756	2753.680948	0.001017
0.400689	14.279841	2753.809690	0.001017
0.400694	14.278685	2753.760162	0.001017
0.400700	14.280795	2753.890408	0.001017
0.400706	14.279648	2753.841238	0.001017
0.400711	14.281783	2753.972973	0.001017
0.400717	14.280644	2753.924171	0.001017
0.400722	14.282804	2754.057381	0.001017
0.400728	14.281674	2754.008957	0.001017
0.400733	14.283858	2754.143628	0.001017
0.400739	14.282737	2754.095591	0.001017
0.400744	14.284946	2754.231708	0.001017
0.400750	14.283834	2754.184069	0.001017
0.400756	14.286067	2754.321617	0.001017
0.400761	14.284965	2754.274387	0.001017
0.400767	14.287222	2754.413351	0.001017
0.400772	14.286129	2754.366541	0.001017
0.400778	14.288410	2754.506905	0.001017
0.400783	14.287327	2754.460525	0.001017
0.400789	14.289631	2754.602274	0.001017
0.400794	14.288559	2754.556335	0.001017
0.400800	14.290886	2754.699454	0.001017
0.400806	14.289824	2754.653966	0.001017
0.400811	14.292174	2754.798440	0.001017
0.400817	14.291123	2754.753415	0.001017
0.400822	14.293496	2754.899228	0.001017
0.400828	14.292456	2754.854677	0.001017
0.400833	14.294852	2755.001812	0.001017
0.400839	14.293823	2754.957746	0.001017
0.400844	14.296241	2755.106187	0.001017
0.400850	14.295224	2755.062619	0.001017
0.400856	14.297664	2755.212350	0.001017
0.400861	14.296658	2755.169291	0.001017
0.400867	14.299120	2755.320294	0.001017
0.400872	14.298127	2755.277756	0.001017
0.400878	14.300610	2755.430016	0.001017
0.400883	14.299629	2755.388011	0.001017
0.400889	14.302134	2755.541508	0.001018
0.400894	14.301166	2755.500049	0.001017
0.400900	14.303691	2755.654767	0.001018
0.400906	14.302736	2755.613868	0.001018
0.400911	14.305282	2755.769787	0.001018
0.400917	14.304340	2755.729460	0.001018
0.400922	14.306907	2755.886563	0.001018
0.400928	14.305979	2755.846822	0.001018
0.400933	14.308566	2756.005088	0.001018
0.400939	14.307652	2755.965948	0.001018
0.400944	14.310258	2756.125358	0.001018
0.400950	14.309358	2756.086833	0.001018
0.400956	14.311985	2756.247365	0.001018
0.400961	14.311099	2756.209471	0.001018
0.400967	14.313745	2756.371105	0.001018
0.400972	14.312875	2756.333856	0.001018
0.400978	14.315539	2756.496570	0.001018
0.400983	14.314684	2756.459984	0.001018
0.400989	14.317367	2756.623755	0.001018
0.400994	14.316528	2756.587848	0.001018
0.401000	14.319229	2756.752652	0.001018
0.401006	14.318407	2756.717442	0.001018
0.401011	14.321126	2756.883254	0.001018
0.401017	14.320319	2756.848760	0.001018
0.401022	14.323056	2757.015554	0.001018
0.401028	14.322266	2756.981795	0.001018
0.401033	14.325020	2757.149545	0.001019
0.401039	14.324248	2757.116542	0.001019
0.401044	14.327018	2757.285219	0.001019
0.401050	14.326265	2757.252992	0.001019
0.401056	14.329050	2757.422566	0.001019
0.401061	14.328316	2757.391139	0.001019
0.401067	14.331117	2757.561578	0.001019
0.401072	14.330401	2757.530975	0.001019
0.401078	14.333218	2757.702246	0.001019
0.401083	14.332522	2757.672492	0.001019
0.401089	14.335353	2757.844560	0.001019
0.401094	14.334677	2757.815682	0.001019
0.401100	14.337522	2757.988508	0.001019
0.401106	14.336868	2757.960537	0.001019
0.401111	14.339725	2758.134079	0.001019
0.401117	14.339093	2758.107047	0.001019
0.401122	14.341963	2758.281261	0.001019
0.401128	14.341354	2758.255202	0.001019
0.401133	14.344236	2758.430041	0.001019
0.401139	14.343650	2758.404993	0.001019
0.401144	14.346542	2758.580402	0.001020
0.401150	14.345981	2758.556408	0.001020
0.401156	14.348883	2758.732329	0.001020
0.401161	14.348348	2758.709436	0.001020
0.401167	14.351259	2758.885802	0.001020
0.401172	14.350750	2758.864065	0.001020
0.401178	14.353669	2759.040803	0.001020
0.401183	14.353189	2759.020280	0.001020
0.401189	14.356114	2759.197305	0.001020
0.401194	14.355663	2759.178069	0.001020
0.401200	14.358593	2759.355282	0.001020
0.401206	14.358175	2759.337416	0.001020
0.401211	14.361107	2759.514699	0.001020
0.401217	14.360723	2759.498307	0.001020
0.401222	14.363655	2759.675518	0.001020
0.401228	14.363309	2759.660729	0.001020
0.401233	14.366239	2759.837684	0.001021
0.401239	14.365934	2759.824672	0.001021
0.401244	14.368857	2760.001131	0.001021
0.401250	14.368600	2759.990145	0.001021
0.401256	14.371510	2760.165756	0.001021
0.401261	14.371310	2760.157210	0.001021
0.401267	14.374198	2760.331396	0.001021
0.401272	14.374077	2760.326223	0.001021
0.401278	14.376921	2760.497670	0.001021
0.401283	14.377026	2760.503981	0.001021
0.401289	14.379675	2760.663637	0.001021
0.401294	14.379912	2760.677909	0.001021
0.401300	14.382457	2760.831166	0.001021
0.401306	14.382837	2760.853987	0.001021
0.401311	14.385268	2761.000319	0.001021
0.401317	14.385786	2761.031509	0.001021
0.401322	14.388108	2761.171165	0.001022
0.401328	14.388760	2761.210392	0.001022
0.401333	14.390979	2761.343780	0.001022
0.401339	14.391758	2761.390633	0.001022
0.401344	14.393882	2761.518238	0.001022
0.401350	14.394781	2761.572252	0.001022
0.401356	14.396818	2761.694617	0.001022
0.401361	14.397828	2761.755283	0.001022
0.401367	14.399789	2761.872991	0.001022
0.401372	14.400902	2761.939763	0.001022
0.401378	14.402796	2762.053427	0.001022
0.401383	14.404001	2762.125736	0.001022
0.401389	14.405840	2762.235983	0.001022
0.401394	14.407128	2762.313249	0.001023
0.401400	14.408921	2762.420703	0.001023
0.401406	14.410284	2762.502352	0.001023
0.401411	14.412041	2762.607616	0.001023
0.401417	14.413468	2762.693097	0.001023
0.401422	14.415199	2762.796736	0.001023
0.401428	14.416683	2762.885534	0.001023
0.401433	14.418396	2762.988063	0.001023
0.401439	14.419928	2763.079714	0.001023
0.401444	14.421631	2763.181586	0.001023
0.401450	14.423205	2763.275684	0.001023
0.401456	14.424904	2763.377283	0.001023
0.401461	14.426514	2763.473486	0.001023
0.401467	14.428215	2763.575132	0.001024
0.401472	14.429856	2763.673159	0.001024
0.401478	14.431563	2763.775107	0.001024
0.401483	14.433232	2763.874734	0.001024
0.401489	14.434949	2763.977183	0.001024
0.401494	14.436642	2764.078239	0.001024
0.401500	14.438371	2764.181341	0.001024
0.401506	14.440087	2764.283696	0.001024
0.401511	14.441829	2764.387562	0.001024
0.401517	14.443567	2764.491123	0.001024
0.401522	14.445324	2764.595831	0.001024
0.401528	14.447081	2764.700532	0.001024
0.401533	14.448855	2764.806139	0.001025
0.401539	14.450632	2764.911932	0.001025
0.401544	14.452422	2765.018477	0.001025
0.401550	14.454217	2765.125332	0.001025
0.401556	14.456025	2765.232840	0.001025
0.401561	14.457839	2765.340736	0.001025
0.401567	14.459663	2765.449223	0.001025
0.401572	14.461496	2765.558146	0.001025
0.401578	14.463338	2765.667625	0.001025
0.401583	14.465189	2765.777567	0.001025
0.401589	14.467049	2765.888042	0.001025
0.401594	14.468918	2765.998999	0.001026
0.401600	14.470796	2766.110475	0.001026
0.401606	14.472683	2766.222442	0.001026
0.401611	14.474579	2766.334922	0.001026
0.401617	14.476484	2766.447899	0.001026
0.401622	14.478398	2766.561384	0.001026
0.401628	14.480321	2766.675369	0.001026
0.401633	14.482253	2766.789860	0.001026
0.401639	14.484195	2766.904852	0.001026
0.401644	14.486145	2767.020349	0.001026
0.401650	14.488104	2767.136349	0.001026
0.401656	14.490073	2767.252853	0.001027
0.401661	14.492050	2767.369860	0.001027
0.401667	14.494037	2767.487370	0.001027
0.401672	14.496032	2767.605384	0.001027
0.401678	14.498037	2767.723902	0.001027
0.401683	14.500051	2767.842923	0.001027
0.401689	14.502074	2767.962448	0.001027
0.401694	14.504106	2768.082476	0.001027
0.401700	14.506147	2768.203008	0.001027
0.401706	14.508198	2768.324043	0.001027
0.401711	14.510257	2768.445582	0.001028
0.401717	14.512326	2768.567625	0.001028
0.401722	14.514403	2768.690171	0.001028
0.401728	14.516490	2768.813221	0.001028
0.401733	14.518586	2768.936775	0.001028
0.401739	14.520692	2769.060832	0.001028
0.401744	14.522806	2769.185393	0.001028
0.401750	14.524930	2769.310458	0.001028
0.401756	14.527063	2769.436026	0.001028
0.401761	14.529205	2769.562098	0.001028
0.401767	14.531356	2769.688674	0.001029
0.401772	14.533516	2769.815754	0.001029
0.401778	14.535686	2769.943337	0.001029
0.401783	14.537865	2770.071424	0.001029
0.401789	14.540053	2770.200015	0.001029
0.401794	14.542250	2770.329110	0.001029
0.401800	14.544457	2770.458708	0.001029
0.401806	14.546672	2770.588810	0.001029
0.401811	14.548898	2770.719417	0.001029
0.401817	14.551132	2770.850527	0.001030
0.401822	14.553376	2770.982140	0.001030
0.401828	14.555629	2771.114258	0.001030
0.401833	14.557891	2771.246880	0.001030
0.401839	14.560162	2771.380006	0.001030
0.401844	14.562443	2771.513635	0.001030
0.401850	14.564733	2771.647769	0.001030
0.401856	14.567033	2771.782406	0.001030
0.401861	14.569341	2771.917547	0.001030
0.401867	14.571659	2772.053193	0.001031
0.401872	14.573987	2772.189342	0.001031
0.401878	14.576324	2772.325995	0.001031
0.401883	14.578670	2772.463153	0.001031
0.401889	14.581025	2772.600814	0.001031
0.401894	14.583390	2772.738980	0.001031
0.401900	14.585764	2772.877649	0.001031
0.401906	14.588148	2773.016823	0.001031
0.401911	14.590541	2773.156501	0.001031
0.401917	14.592943	2773.296683	0.001032
0.401922	14.595355	2773.437368	0.001032
0.401928	14.597776	2773.578559	0.001032
0.401933	14.600207	2773.720253	0.001032
0.401939	14.602647	2773.862451	0.001032
0.401944	14.605097	2774.005154	0.001032
0.401950	14.607556	2774.148360	0.001032
0.401956	14.610024	2774.292071	0.001032
0.401961	14.612502	2774.436286	0.001033
0.401967	14.614989	2774.581006	0.001033
0.401972	14.617486	2774.726229	0.001033
0.401978	14.619992	2774.871957	0.001033
0.401983	14.622508	2775.018189	0.001033
0.401989	14.625033	2775.164926	0.001033
0.401994	14.627568	2775.312166	0.001033
0.402000	14.630112	2775.459911	0.001033
0.402006	14.632666	2775.608160	0.001034
0.402011	14.635229	2775.756914	0.001034
0.402017	14.637802	2775.906172	0.001034
0.402022	14.640385	2776.055934	0.001034
0.402028	14.642977	2776.206200	0.001034
0.402033	14.645578	2776.356971	0.001034
0.402039	14.648189	2776.508247	0.001034
0.402044	14.650810	2776.660026	0.001034
0.402050	14.653440	2776.812310	0.001035
0.402056	14.656080	2776.965099	0.001035
0.402061	14.658729	2777.118392	0.001035
0.402067	14.661389	2777.272189	0.001035
0.402072	14.664057	2777.426491	0.001035
0.402078	14.666735	2777.581297	0.001035
0.402083	14.669423	2777.736608	0.001035
0.402089	14.672121	2777.892423	0.001035
0.402094	14.674828	2778.048742	0.001036
0.402100	14.677545	2778.205567	0.001036
0.402106	14.680271	2778.362895	0.001036
0.402111	14.683008	2778.520728	0.001036
0.402117	14.685754	2778.679066	0.001036
0.402122	14.688509	2778.837908	0.001036
0.402128	14.691274	2778.997254	0.001036
0.402133	14.694049	2779.157106	0.001037
0.402139	14.696834	2779.317461	0.001037
0.402144	14.699628	2779.478321	0.001037
0.402150	14.702432	2779.639686	0.001037
0.402156	14.705246	2779.801555	0.001037
0.402161	14.708070	2779.963929	0.001037
0.402167	14.710903	2780.126808	0.001037
0.402172	14.713746	2780.290191	0.001038
0.402178	14.716599	2780.454078	0.001038
0.402183	14.719462	2780.618471	0.001038
0.402189	14.722334	2780.783367	0.001038
0.402194	14.725216	2780.948769	0.001038
0.402200	14.728108	2781.114675	0.001038
0.402206	14.731010	2781.281085	0.001038
0.402211	14.733922	2781.448000	0.001039
0.402217	14.736843	2781.615420	0.001039
0.402222	14.739775	2781.783345	0.001039
0.402228	14.742716	2781.951774	0.001039
0.402233	14.745667	2782.120707	0.001039
0.402239	14.748628	2782.290145	0.001039
0.402244	14.751599	2782.460088	0.001039
0.402250	14.754579	2782.630536	0.001040
0.402256	14.757570	2782.801488	0.001040
0.402261	14.760570	2782.972945	0.001040
0.402267	14.763581	2783.144906	0.001040
0.402272	14.766601	2783.317372	0.001040
0.402278	14.769631	2783.490342	0.001040
0.402283	14.772671	2783.663818	0.001040
0.402289	14.775721	2783.837797	0.001041
0.402294	14.778781	2784.012282	0.001041
0.402300	14.781851	2784.187271	0.001041
0.402306	14.784931	2784.362765	0.001041
0.402311	14.788021	2784.538763	0.001041
0.402317	14.791121	2784.715266	0.001041
0.402322	14.794231	2784.892273	0.001041
0.402328	14.797351	2785.069785	0.001042
0.402333	14.800480	2785.247802	0.001042
0.402339	14.803620	2785.426323	0.001042
0.402344	14.806770	2785.605349	0.001042
0.402350	14.809930	2785.784879	0.001042
0.402356	14.813100	2785.964914	0.001042
0.402361	14.816280	2786.145454	0.001043
0.402367	14.819470	2786.326498	0.001043
0.402372	14.822671	2786.508046	0.001043
0.402378	14.825881	2786.690100	0.001043
0.402383	14.829101	2786.872657	0.001043
0.402389	14.832332	2787.055720	0.001043
0.402394	14.835572	2787.239286	0.001044
0.402400	14.838823	2787.423357	0.001044
0.402406	14.842084	2787.607933	0.001044
0.402411	14.845355	2787.793013	0.001044
0.402417	14.848636	2787.978598	0.001044
0.402422	14.851927	2788.164687	0.001044
0.402428	14.855228	2788.351281	0.001044
0.402433	14.858540	2788.538379	0.001045
0.402439	14.861862	2788.725981	0.001045
0.402444	14.865194	2788.914088	0.001045
0.402450	14.868536	2789.102699	0.001045
0.402456	14.871888	2789.291814	0.001045
0.402461	14.875251	2789.481434	0.001045
0.402467	14.878624	2789.671559	0.001046
0.402472	14.882007	2789.862187	0.001046
0.402478	14.885400	2790.053320	0.001046
0.402483	14.888804	2790.244957	0.001046
0.402489	14.892217	2790.437098	0.001046
0.402494	14.895641	2790.629744	0.001046
0.402500	14.899076	2790.822894	0.001047
0.402506	14.902520	2791.016548	0.001047
0.402511	14.905975	2791.210706	0.001047
0.402517	14.909441	2791.405368	0.001047
0.402522	14.912916	2791.600535	0.001047
0.402528	14.916402	2791.796205	0.001047
0.402533	14.919898	2791.992380	0.001048
0.402539	14.923405	2792.189059	0.001048
0.402544	14.926922	2792.386242	0.001048
0.402550	14.930449	2792.583928	0.001048
0.402556	14.933987	2792.782119	0.001048
0.402561	14.937535	2792.980814	0.001049
0.402567	14.941094	2793.180012	0.001049
0.402572	14.944662	2793.379715	0.001049
0.402578	14.948242	2793.579921	0.001049
0.402583	14.951831	2793.780632	0.001049
0.402589	14.955432	2793.981846	0.001049
0.402594	14.959042	2794.183563	0.001050
0.402600	14.962663	2794.385785	0.001050
0.402606	14.966295	2794.588510	0.001050
0.402611	14.969937	2794.791739	0.001050
0.402617	14.973589	2794.995472	0.001050
0.402622	14.977252	2795.199708	0.001050
0.402628	14.980925	2795.404448	0.001051
0.402633	14.984609	2795.609691	0.001051
0.402639	14.988304	2795.815438	0.001051
0.402644	14.992009	2796.021688	0.001051
0.402650	14.995724	2796.228442	0.001051
0.402656	14.999450	2796.435699	0.001052
0.402661	15.003187	2796.643459	0.001052
0.402667	15.006934	2796.851723	0.001052
0.402672	15.010692	2797.060490	0.001052
0.402678	15.014460	2797.269760	0.001052
0.402683	15.018239	2797.479533	0.001052
0.402689	15.022029	2797.689810	0.001053
0.402694	15.025829	2797.900589	0.001053
0.402700	15.029640	2798.111872	0.001053
0.402706	15.033461	2798.323658	0.001053
0.402711	15.037293	2798.535946	0.001053
0.402717	15.041136	2798.748737	0.001054
0.402722	15.044989	2798.962032	0.001054
0.402728	15.048853	2799.175829	0.001054
0.402733	15.052728	2799.390128	0.001054
0.402739	15.056614	2799.604931	0.001054
0.402744	15.060510	2799.820236	0.001055
0.402750	15.064417	2800.036043	0.001055
0.402756	15.068334	2800.252354	0.001055
0.402761	15.072263	2800.469166	0.001055
0.402767	15.076202	2800.686481	0.001055
